Voltage(V),I_before,V_before,Voltage(V),I_after,V_after
1.0,1.589439e-06,1.007167,1.0,1.689311e-06,1.011527
2.0,3.066812e-06,2.007921,2.0,3.175611e-06,2.008481
3.0,4.575344e-06,3.004863,3.0,4.628299e-06,3.009805
4.0,6.090334e-06,4.00837,4.0,6.117019e-06,4.005088
5.0,7.626551e-06,5.003675,5.0,7.586985e-06,4.997668
6.0,9.166684e-06,6.014222,6.0,9.095069e-06,6.014821
7.0,1.065258e-05,7.009055,7.0,1.057737e-05,7.009021
8.0,1.212205e-05,8.007629,8.0,1.205037e-05,8.005461
9.0,1.361875e-05,9.006783,9.0,1.355435e-05,9.014878
10.0,1.509076e-05,10.01086,10.0,1.509177e-05,10.00924
11.0,1.659226e-05,11.02354,11.0,1.66496e-05,11.01699
12.0,1.806665e-05,12.01665,12.0,1.817426e-05,12.02068
13.0,1.955642e-05,13.0147,13.0,1.966414e-05,13.01357
14.0,2.106092e-05,14.0105,14.0,2.112465e-05,14.00774
15.0,2.258743e-05,15.00702,15.0,2.261109e-05,15.01133
16.0,2.41252e-05,16.01655,16.0,2.407448e-05,16.01363
17.0,2.566602e-05,17.02362,17.0,2.558098e-05,17.02417
18.0,2.714897e-05,18.02174,18.0,2.706598e-05,18.02507
19.0,2.861601e-05,19.01653,19.0,2.854079e-05,19.01757
20.0,3.009608e-05,20.02344,20.0,3.00436e-05,20.01139
21.0,3.157244e-05,21.01272,21.0,3.157684e-05,21.01268
22.0,3.307737e-05,22.03683,22.0,3.314823e-05,22.03312
23.0,3.45716e-05,23.02671,23.0,3.467054e-05,23.03601
24.0,3.60466e-05,24.02644,24.0,3.615674e-05,24.02669
25.0,3.754519e-05,25.02171,25.0,3.761151e-05,25.01957
26.0,3.907607e-05,26.02254,26.0,3.9088e-05,26.01789
27.0,4.060835e-05,27.01731,27.0,4.057166e-05,27.01179
28.0,4.21543e-05,28.03378,28.0,4.207299e-05,28.03614
29.0,4.363208e-05,29.02139,29.0,4.355163e-05,29.02584
30.0,4.510404e-05,30.0263,30.0,4.503107e-05,30.02556
31.0,4.658552e-05,31.0241,31.0,4.652911e-05,31.02244
32.0,4.805838e-05,32.02187,32.0,4.806302e-05,32.01479
33.0,4.956608e-05,33.03659,33.0,4.961813e-05,33.02456
34.0,5.104409e-05,34.03962,34.0,5.115703e-05,34.02993
35.0,5.25172e-05,35.0202,35.0,5.26378e-05,35.02759
36.0,5.40397e-05,36.03119,36.0,5.410138e-05,36.02511
37.0,5.558024e-05,37.02619,37.0,5.558848e-05,37.02521
38.0,5.710308e-05,38.02279,38.0,5.704811e-05,38.02306
39.0,5.864771e-05,39.03881,39.0,5.855094e-05,39.03564
40.0,6.011434e-05,40.03999,40.0,6.003275e-05,40.03181
41.0,6.158122e-05,41.03052,41.0,6.15157e-05,41.03232
42.0,6.307087e-05,42.03319,42.0,6.302389e-05,42.03428
43.0,6.453454e-05,43.01974,43.0,6.455532e-05,43.02772
44.0,6.604613e-05,44.03747,44.0,6.611861e-05,44.04072
45.0,6.753766e-05,45.03767,45.0,6.764163e-05,45.03241
46.0,6.902142e-05,46.04364,46.0,6.91263e-05,46.04389
47.0,7.052942e-05,47.03477,47.0,7.058404e-05,47.03689
48.0,7.206642e-05,48.03682,48.0,7.206245e-05,48.03157
49.0,7.358995e-05,49.03844,49.0,7.353588e-05,49.02469
50.0,7.512632e-05,50.04715,50.0,7.503584e-05,50.04661
51.0,7.659351e-05,51.03898,51.0,7.652724e-05,51.03876
52.0,7.808059e-05,52.04049,52.0,7.800302e-05,52.04129
53.0,7.955926e-05,53.03513,53.0,7.951156e-05,53.03911
54.0,8.10258e-05,54.02706,54.0,8.105649e-05,54.03593
55.0,8.253872e-05,55.05156,55.0,8.26113e-05,55.05128
56.0,8.402447e-05,56.04554,56.0,8.41481e-05,56.05341
57.0,8.551315e-05,57.04407,57.0,8.56152e-05,57.05347
58.0,8.703206e-05,58.04591,58.0,8.708638e-05,58.04096
59.0,8.857124e-05,59.04176,59.0,8.856058e-05,59.04245
60.0,9.008852e-05,60.03173,60.0,9.002862e-05,60.03823
61.0,9.162848e-05,61.05067,61.0,9.153632e-05,61.04957
62.0,9.308614e-05,62.05365,62.0,9.301531e-05,62.04572
63.0,9.456697e-05,63.05113,63.0,9.449593e-05,63.04797
64.0,9.604925e-05,64.04456,64.0,9.601252e-05,64.04337
65.0,9.751766e-05,65.04308,65.0,9.755295e-05,65.04233
66.0,9.903797e-05,66.05742,66.0,9.910813e-05,66.05324
67.0,0.0001005155,67.06615,67.0,0.0001006338,67.05856
68.0,0.0001020038,68.04977,68.0,0.0001020959,68.04998
69.0,0.0001035142,69.05724,69.0,0.0001035636,69.04104
70.0,0.0001050535,70.0461,70.0,0.0001050498,70.04757
71.0,0.0001065846,71.04211,71.0,0.0001065186,71.04616
72.0,0.0001081114,72.05835,72.0,0.00010802,72.05479
73.0,0.0001095795,73.05623,73.0,0.0001095118,73.05956
74.0,0.0001110548,74.05337,74.0,0.0001109848,74.06013
75.0,0.0001125297,75.04913,75.0,0.0001124808,75.04866
76.0,0.0001139963,76.04535,76.0,0.0001140355,76.04402
77.0,0.0001155045,77.05447,77.0,0.0001155928,77.05956
78.0,0.0001169896,78.0548,78.0,0.0001171116,78.05481
79.0,0.0001184845,79.04569,79.0,0.0001185744,79.0518
80.0,0.0001199968,80.04687,80.0,0.0001200434,80.04826
81.0,0.0001215244,81.02847,81.0,0.00012152,81.04346
82.0,0.0001230532,82.03423,82.0,0.0001229807,82.0445
83.0,0.0001245747,83.05502,83.0,0.0001244859,83.05161
84.0,0.0001260327,84.04256,84.0,0.0001259687,84.05808
85.0,0.000127514,85.03893,85.0,0.0001274427,85.03907
86.0,0.0001289868,86.03137,86.0,0.0001289603,86.03854
87.0,0.0001304695,87.04046,87.0,0.0001305077,87.03336
88.0,0.0001319786,88.05691,88.0,0.0001320532,88.04269
89.0,0.00013346,89.05712,89.0,0.0001335801,89.0505
90.0,0.0001349499,90.04304,90.0,0.0001350391,90.04464
91.0,0.0001364676,91.04267,91.0,0.0001365031,91.04267
92.0,0.0001380011,92.03645,92.0,0.0001379872,92.03564
93.0,0.0001395263,93.03765,93.0,0.0001394537,93.03985
94.0,0.0001410498,94.04534,94.0,0.000140961,94.04083
95.0,0.0001425057,95.04292,95.0,0.0001424409,95.04346
96.0,0.0001439898,96.04014,96.0,0.0001439186,96.04276
97.0,0.0001454536,97.03857,97.0,0.0001454359,97.03732
98.0,0.0001469324,98.038,98.0,0.0001469738,98.03364
99.0,0.0001484389,99.04056,99.0,0.0001485275,99.04086
100.0,0.0001499201,100.0426,100.0,0.0001500434,100.039
101.0,0.0001514206,101.0367,101.0,0.0001515103,101.0388
102.0,0.0001529449,102.037,102.0,0.0001529844,102.0345
103.0,0.0001544739,103.0256,103.0,0.0001544543,103.0277
104.0,0.0001559919,104.0299,104.0,0.000155913,104.025
105.0,0.0001575049,105.0409,105.0,0.0001574224,105.0421
106.0,0.0001589695,106.0376,106.0,0.0001588965,106.0377
107.0,0.0001604491,107.0287,107.0,0.0001603784,107.0271
108.0,0.0001619188,108.0258,108.0,0.0001619019,108.0272
109.0,0.0001634002,109.021,109.0,0.0001634511,109.0229
110.0,0.0001649084,110.0403,110.0,0.0001649946,110.0329
111.0,0.0001663817,111.0313,111.0,0.000166511,111.0373
112.0,0.0001678918,112.0331,112.0,0.000167968,112.0325
113.0,0.0001694105,113.0265,113.0,0.0001694419,113.0252
114.0,0.0001709447,114.0169,114.0,0.0001709155,114.0203
115.0,0.000172467,115.0191,115.0,0.0001723943,115.0185
116.0,0.0001739663,116.0238,116.0,0.0001738965,116.0334
117.0,0.0001754387,117.0272,117.0,0.0001753672,117.0277
118.0,0.0001769179,118.0237,118.0,0.0001768499,118.02
119.0,0.0001783842,119.0238,119.0,0.0001783709,119.0201
120.0,0.0001798615,120.0157,120.0,0.0001799098,120.017
121.0,0.0001813748,121.0324,121.0,0.000181465,121.0347
122.0,0.0001828517,122.0253,122.0,0.0001829784,122.0293
123.0,0.0001843606,123.0235,123.0,0.0001844382,123.0213
124.0,0.0001858923,124.0203,124.0,0.00018591,124.0192
125.0,0.0001874144,125.0138,125.0,0.0001873871,125.0173
