Voltage(V),I_before,V_before,Voltage(V),I_after,V_after
1.0,1.680406e-06,1.00716,1.0,1.599323e-06,1.014254
2.0,3.143947e-06,2.01174,2.0,3.135539e-06,2.007376
3.0,4.6243e-06,3.004868,3.0,4.655941e-06,3.008138
4.0,6.092801e-06,4.003459,4.0,6.159038e-06,4.005628
5.0,7.566671e-06,4.998731,5.0,7.626039e-06,4.9993
6.0,9.069308e-06,6.005516,6.0,9.133592e-06,6.013156
7.0,1.056063e-05,7.011793,7.0,1.060655e-05,7.007931
8.0,1.207254e-05,8.011955,8.0,1.208642e-05,8.014701
9.0,1.359645e-05,9.014928,9.0,1.356525e-05,9.010529
10.0,1.513023e-05,10.00807,10.0,1.504666e-05,10.00916
11.0,1.667336e-05,11.03119,11.0,1.657048e-05,11.0208
12.0,1.815961e-05,12.02865,12.0,1.808433e-05,12.01384
13.0,1.962117e-05,13.01633,13.0,1.963117e-05,13.02076
14.0,2.111086e-05,14.00995,14.0,2.115152e-05,14.01221
15.0,2.258059e-05,15.00708,15.0,2.265176e-05,15.01032
16.0,2.406182e-05,16.01539,16.0,2.410889e-05,16.01164
17.0,2.557131e-05,17.0265,17.0,2.561721e-05,17.03135
18.0,2.705218e-05,18.024,18.0,2.709524e-05,18.01967
19.0,2.855092e-05,19.01774,19.0,2.857499e-05,19.02254
20.0,3.008108e-05,20.01896,20.0,3.006178e-05,20.01928
21.0,3.161895e-05,21.01655,21.0,3.153299e-05,21.00591
22.0,3.316598e-05,22.02709,22.0,3.306501e-05,22.03247
23.0,3.465049e-05,23.0222,23.0,3.457509e-05,23.01822
24.0,3.610372e-05,24.02138,24.0,3.611609e-05,24.02192
25.0,3.759508e-05,25.01928,25.0,3.763728e-05,25.02125
26.0,3.906393e-05,26.01417,26.0,3.913868e-05,26.01642
27.0,4.054779e-05,27.01748,27.0,4.060071e-05,27.01443
28.0,4.20598e-05,28.02828,28.0,4.211627e-05,28.03435
29.0,4.354276e-05,29.02695,29.0,4.358211e-05,29.02791
30.0,4.504827e-05,30.02604,30.0,4.505942e-05,30.02862
31.0,4.657548e-05,31.02345,31.0,4.65447e-05,31.02315
32.0,4.810425e-05,32.02746,32.0,4.802487e-05,32.02107
33.0,4.964629e-05,33.0336,33.0,4.954733e-05,33.03607
34.0,5.113264e-05,34.03114,34.0,5.107108e-05,34.03294
35.0,5.260142e-05,35.02227,35.0,5.261415e-05,35.03146
36.0,5.408466e-05,36.02407,36.0,5.413806e-05,36.02789
37.0,5.556631e-05,37.02941,37.0,5.563723e-05,37.02792
38.0,5.70384e-05,38.02481,38.0,5.708856e-05,38.03063
39.0,5.854461e-05,39.03713,39.0,5.85948e-05,39.035
40.0,6.001784e-05,40.03306,40.0,6.006268e-05,40.03329
41.0,6.153232e-05,41.0311,41.0,6.155179e-05,41.03614
42.0,6.307897e-05,42.0355,42.0,6.303561e-05,42.03363
43.0,6.458928e-05,43.01507,43.0,6.450027e-05,43.02554
44.0,6.614476e-05,44.04287,44.0,6.602945e-05,44.04225
45.0,6.762314e-05,45.04364,45.0,6.755596e-05,45.03953
46.0,6.908949e-05,46.03938,46.0,6.910251e-05,46.03949
47.0,7.056881e-05,47.03499,47.0,7.062688e-05,47.03862
48.0,7.20395e-05,48.03394,48.0,7.21219e-05,48.03273
49.0,7.352771e-05,49.02757,49.0,7.357602e-05,49.02933
50.0,7.502729e-05,50.04357,50.0,7.50883e-05,50.04719
51.0,7.651524e-05,51.04173,51.0,7.655685e-05,51.03981
52.0,7.802867e-05,52.04267,52.0,7.802657e-05,52.03626
53.0,7.955907e-05,53.03718,53.0,7.951322e-05,53.03181
54.0,8.10948e-05,54.03303,54.0,8.098886e-05,54.03022
55.0,8.263806e-05,55.04969,55.0,8.252019e-05,55.04574
56.0,8.411291e-05,56.04604,56.0,8.406366e-05,56.05108
57.0,8.558943e-05,57.04634,57.0,8.560082e-05,57.04275
58.0,8.706963e-05,58.04319,58.0,8.713332e-05,58.04488
59.0,8.852689e-05,59.03084,59.0,8.861467e-05,59.04019
60.0,9.001542e-05,60.03429,60.0,9.0065e-05,60.03133
61.0,9.152574e-05,61.0561,61.0,9.158246e-05,61.05218
62.0,9.300856e-05,62.04507,62.0,9.30473e-05,62.04834
63.0,9.451839e-05,63.04604,63.0,9.452904e-05,63.04697
64.0,9.605724e-05,64.04134,64.0,9.601404e-05,64.04633
65.0,9.759684e-05,65.04259,65.0,9.748552e-05,65.04417
66.0,9.913348e-05,66.05965,66.0,9.900937e-05,66.05311
67.0,0.0001006012,67.05589,67.0,0.0001005449,67.06243
68.0,0.000102071,68.05217,68.0,0.0001020874,68.04819
69.0,0.000103553,69.05228,69.0,0.0001036168,69.05228
70.0,0.0001050214,70.0471,70.0,0.0001051034,70.0478
71.0,0.0001065059,71.04157,71.0,0.000106562,71.04563
72.0,0.0001080213,72.06027,72.0,0.0001080677,72.06948
73.0,0.0001094968,73.05707,73.0,0.0001095312,73.05606
74.0,0.0001110023,74.05058,74.0,0.0001110082,74.05469
75.0,0.0001125368,75.05533,75.0,0.0001124862,75.04877
76.0,0.0001140555,76.04118,76.0,0.0001139609,76.04305
77.0,0.0001156064,77.05853,77.0,0.0001154949,77.05745
78.0,0.0001170745,78.05685,78.0,0.000117029,78.05413
79.0,0.0001185493,79.05138,79.0,0.0001185699,79.05203
80.0,0.0001200285,80.04874,80.0,0.0001200857,80.0497
81.0,0.0001214929,81.04234,81.0,0.000121557,81.04417
82.0,0.0001229688,82.03893,82.0,0.0001230167,82.03375
83.0,0.000124489,83.05527,83.0,0.0001245249,83.04107
84.0,0.0001259633,84.0504,84.0,0.000126002,84.04861
85.0,0.0001274742,85.04214,85.0,0.0001274754,85.04194
86.0,0.0001290112,86.03792,86.0,0.0001289593,86.03928
87.0,0.000130536,87.03587,87.0,0.000130423,87.03875
88.0,0.0001320727,88.062,88.0,0.000131958,88.04139
89.0,0.0001335374,89.04817,89.0,0.0001334968,89.04672
90.0,0.0001350082,90.04395,90.0,0.0001350324,90.03842
91.0,0.0001364885,91.03809,91.0,0.0001365564,91.0386
92.0,0.0001379601,92.03426,92.0,0.0001380362,92.04601
93.0,0.0001394451,93.03243,93.0,0.0001394966,93.0336
94.0,0.0001409485,94.04001,94.0,0.0001410014,94.04559
95.0,0.0001424357,95.04471,95.0,0.0001424628,95.04299
96.0,0.0001439408,96.04699,96.0,0.0001439408,96.03345
97.0,0.000145481,97.04278,97.0,0.0001454272,97.03701
98.0,0.0001470027,98.03207,98.0,0.000146899,98.03278
99.0,0.000148538,99.04282,99.0,0.0001484328,99.04539
100.0,0.0001500086,100.0407,100.0,0.0001499732,100.0408
101.0,0.0001514821,101.0345,101.0,0.0001515057,101.0378
102.0,0.0001529601,102.0382,102.0,0.0001530332,102.0382
103.0,0.0001544274,103.031,103.0,0.0001544951,103.0324
104.0,0.0001559065,104.0319,104.0,0.0001559556,104.024
105.0,0.0001574098,105.0345,105.0,0.0001574667,105.0393
106.0,0.0001589007,106.0357,106.0,0.000158935,106.0375
107.0,0.0001604109,107.0312,107.0,0.0001604154,107.0338
108.0,0.0001619479,108.0269,108.0,0.0001618905,108.025
109.0,0.0001634717,109.0224,109.0,0.0001633634,109.024
110.0,0.0001650082,110.0482,110.0,0.0001648932,110.0389
111.0,0.0001664697,111.0361,111.0,0.0001664418,111.0338
112.0,0.0001679391,112.0307,112.0,0.0001679704,112.0256
113.0,0.0001694211,113.0255,113.0,0.0001694951,113.0209
114.0,0.0001708913,114.0268,114.0,0.0001709618,114.0297
115.0,0.0001723813,115.0158,115.0,0.0001724275,115.018
116.0,0.0001738868,116.0447,116.0,0.0001739341,116.0341
117.0,0.0001753657,117.0237,117.0,0.0001753961,117.0324
118.0,0.0001768729,118.0268,118.0,0.0001768731,118.0241
119.0,0.0001784108,119.0208,119.0,0.0001783606,119.0187
120.0,0.0001799343,120.0137,120.0,0.0001798263,120.0131
121.0,0.0001814756,121.032,121.0,0.0001813719,121.0335
122.0,0.0001829342,122.0265,122.0,0.0001829138,122.0279
123.0,0.0001844127,123.0214,123.0,0.0001844437,123.0218
124.0,0.0001858929,124.0204,124.0,0.0001859573,124.0182
125.0,0.0001873593,125.0198,125.0,0.000187428,125.0176
