Voltage(V),I_before,V_before,Voltage(V),I_after,V_after
1.0,1.657543e-06,1.008719,1.0,1.59324e-06,1.009789
2.0,3.113008e-06,2.008823,2.0,3.16139e-06,1.997872
3.0,4.567499e-06,3.019843,3.0,4.592226e-06,3.007851
4.0,6.121704e-06,3.99368,4.0,6.046851e-06,4.026597
5.0,7.60702e-06,5.001542,5.0,7.626795e-06,5.003724
6.0,9.105012e-06,6.03219,6.0,9.124788e-06,6.01474
7.0,1.059509e-05,7.014848,7.0,1.056018e-05,6.992835
8.0,1.213274e-05,8.01939,8.0,1.209612e-05,8.01064
9.0,1.359213e-05,9.01402,9.0,1.363854e-05,9.009614
10.0,1.506831e-05,10.001,10.0,1.506332e-05,10.0206
11.0,1.66445e-05,11.02408,11.0,1.657716e-05,11.02619
12.0,1.812081e-05,12.0166,12.0,1.814858e-05,12.01775
13.0,1.957581e-05,13.00549,13.0,1.961363e-05,13.01438
14.0,2.110111e-05,14.01473,14.0,2.105737e-05,14.00912
15.0,2.260376e-05,15.01792,15.0,2.261079e-05,15.01253
16.0,2.40622e-05,16.00603,16.0,2.408262e-05,15.9949
17.0,2.559015e-05,17.03033,17.0,2.558892e-05,17.02471
18.0,2.713446e-05,18.02162,18.0,2.707023e-05,18.02382
19.0,2.859593e-05,19.02285,19.0,2.865755e-05,19.03724
20.0,3.006559e-05,20.01665,20.0,3.008692e-05,20.012
21.0,3.159585e-05,21.01761,21.0,3.153939e-05,21.01209
22.0,3.311659e-05,22.02972,22.0,3.313918e-05,22.02744
23.0,3.457796e-05,23.03308,23.0,3.461185e-05,23.03544
24.0,3.608201e-05,24.03109,24.0,3.606484e-05,24.02824
25.0,3.760292e-05,25.00557,25.0,3.755203e-05,25.01902
26.0,3.907827e-05,26.02822,26.0,3.912629e-05,26.01048
27.0,4.053415e-05,27.01334,27.0,4.056522e-05,27.02277
28.0,4.212941e-05,28.03048,28.0,4.204503e-05,28.03135
29.0,4.359465e-05,29.02287,29.0,4.362059e-05,29.01473
30.0,4.506221e-05,30.03404,30.0,4.509223e-05,30.02991
31.0,4.658798e-05,31.02876,31.0,4.653895e-05,31.02727
32.0,4.809877e-05,32.02338,32.0,4.807565e-05,32.03403
33.0,4.958156e-05,33.04287,33.0,4.96266e-05,33.03778
34.0,5.104906e-05,34.03218,34.0,5.104775e-05,34.03305
35.0,5.26391e-05,35.03127,35.0,5.255045e-05,35.04348
36.0,5.409279e-05,36.0315,36.0,5.411472e-05,36.01067
37.0,5.55365e-05,37.0284,37.0,5.557579e-05,37.03695
38.0,5.710058e-05,38.02623,38.0,5.7023e-05,38.02484
39.0,5.859949e-05,39.04046,39.0,5.859129e-05,39.03373
40.0,6.005516e-05,40.03962,40.0,6.009118e-05,40.04142
41.0,6.153043e-05,41.04192,41.0,6.156068e-05,41.03686
42.0,6.312395e-05,42.03196,42.0,6.301676e-05,42.01576
43.0,6.454476e-05,43.02615,43.0,6.461622e-05,43.02676
44.0,6.603533e-05,44.06519,44.0,6.606666e-05,44.04862
45.0,6.760136e-05,45.04227,45.0,6.751523e-05,45.03783
46.0,6.90786e-05,46.04675,46.0,6.910342e-05,46.0381
47.0,7.053112e-05,47.03487,47.0,7.057244e-05,47.04193
48.0,7.204273e-05,48.03702,48.0,7.202516e-05,48.03498
49.0,7.359152e-05,49.02755,49.0,7.352957e-05,49.03518
50.0,7.504937e-05,50.04581,50.0,7.509335e-05,50.04613
51.0,7.651992e-05,51.05808,51.0,7.654045e-05,51.04047
52.0,7.810531e-05,52.04361,52.0,7.800989e-05,52.03848
53.0,7.958811e-05,53.04414,53.0,7.960876e-05,53.04691
54.0,8.102033e-05,54.02973,54.0,8.105507e-05,54.03418
55.0,8.258358e-05,55.05275,55.0,8.254073e-05,55.05209
56.0,8.409681e-05,56.05094,56.0,8.408243e-05,56.04731
57.0,8.554765e-05,57.04733,57.0,8.558474e-05,57.05704
58.0,8.70363e-05,58.04344,58.0,8.703715e-05,58.03898
59.0,8.859715e-05,59.04937,59.0,8.851776e-05,59.04003
60.0,9.004571e-05,60.03792,60.0,9.010857e-05,60.0383
61.0,9.155882e-05,61.05568,61.0,9.156091e-05,61.05727
62.0,9.30752e-05,62.04527,62.0,9.302023e-05,62.04815
63.0,9.456415e-05,63.04965,63.0,9.456889e-05,63.04231
64.0,9.603485e-05,64.05154,64.0,9.607379e-05,64.04919
65.0,9.750896e-05,65.04173,65.0,9.751436e-05,65.04204
66.0,9.911123e-05,66.06396,66.0,9.903296e-05,66.06386
67.0,0.0001005244,67.04218,67.0,0.0001006059,67.07587
68.0,0.0001020074,68.04282,68.0,0.000102036,68.05656
69.0,0.00010357,69.05077,69.0,0.0001034979,69.05154
70.0,0.0001050495,70.04893,70.0,0.0001050772,70.05547
71.0,0.0001065109,71.04794,71.0,0.0001065308,71.02925
72.0,0.0001080516,72.06016,72.0,0.0001080226,72.05339
73.0,0.0001095733,73.05264,73.0,0.0001095473,73.05856
74.0,0.0001110242,74.05843,74.0,0.0001110699,74.05033
75.0,0.0001124971,75.04959,75.0,0.0001125044,75.05637
76.0,0.0001140663,76.04642,76.0,0.0001139745,76.04218
77.0,0.000115562,77.05854,77.0,0.0001155892,77.06302
78.0,0.0001170077,78.05524,78.0,0.0001170471,78.0582
79.0,0.0001185354,79.04663,79.0,0.0001184879,79.05536
80.0,0.0001200414,80.04968,80.0,0.0001200484,80.04781
81.0,0.0001214853,81.03838,81.0,0.0001215177,81.04306
82.0,0.0001229722,82.03727,82.0,0.0001229743,82.04285
83.0,0.0001245621,83.05374,83.0,0.0001245034,83.05043
84.0,0.0001260136,84.05058,84.0,0.0001260737,84.05087
85.0,0.0001274665,85.04375,85.0,0.0001274956,85.04796
86.0,0.0001290231,86.04358,86.0,0.0001289482,86.06007
87.0,0.0001304967,87.03455,87.0,0.0001305131,87.03428
88.0,0.0001319865,88.05471,88.0,0.000132027,88.05402
89.0,0.0001334739,89.05005,89.0,0.0001334724,89.04705
90.0,0.0001350281,90.04892,90.0,0.0001349583,90.04485
91.0,0.000136454,91.02135,91.0,0.000136535,91.04467
92.0,0.000137947,92.03896,92.0,0.0001379517,92.03591
93.0,0.0001395115,93.05776,93.0,0.0001394347,93.03442
94.0,0.000140996,94.03974,94.0,0.0001410396,94.05029
95.0,0.0001424641,95.04432,95.0,0.000142494,95.04991
96.0,0.0001439734,96.05407,96.0,0.0001439433,96.04224
97.0,0.000145508,97.04157,97.0,0.0001454828,97.04454
98.0,0.0001469401,98.03904,98.0,0.0001469922,98.0378
99.0,0.0001484438,99.05317,99.0,0.0001484568,99.04569
100.0,0.000150008,100.0369,100.0,0.000149933,100.0477
101.0,0.0001514624,101.045,101.0,0.0001515074,101.0419
102.0,0.0001529382,102.0342,102.0,0.0001529693,102.0389
103.0,0.0001544641,103.0279,103.0,0.0001543949,103.0185
104.0,0.0001559517,104.0295,104.0,0.0001559629,104.0333
105.0,0.0001574366,105.0436,105.0,0.000157469,105.0428
106.0,0.0001589265,106.0367,106.0,0.0001589326,106.0376
107.0,0.0001604808,107.0513,107.0,0.0001604049,107.0333
108.0,0.0001619115,108.0195,108.0,0.0001619886,108.0249
109.0,0.0001633923,109.0272,109.0,0.0001634222,109.0212
110.0,0.0001649635,110.0378,110.0,0.0001648925,110.034
111.0,0.0001664482,111.0247,111.0,0.0001664641,111.037
112.0,0.0001679003,112.027,112.0,0.0001679377,112.0293
113.0,0.0001694172,113.0416,113.0,0.0001694051,113.0283
114.0,0.0001709413,114.0297,114.0,0.0001708787,114.0197
115.0,0.0001723933,115.0186,115.0,0.0001724566,115.0204
116.0,0.0001738911,116.0312,116.0,0.0001739037,116.0376
117.0,0.0001754477,117.0293,117.0,0.0001753775,117.0348
118.0,0.0001769185,118.0281,118.0,0.0001769454,118.026
119.0,0.0001783811,119.0318,119.0,0.0001784027,119.0212
120.0,0.0001799059,120.0136,120.0,0.0001798644,120.0218
121.0,0.0001814343,121.0367,121.0,0.000181405,121.0208
122.0,0.0001828898,122.0303,122.0,0.000182935,122.0323
123.0,0.0001843718,123.0231,123.0,0.0001843723,123.0219
124.0,0.0001859311,124.0166,124.0,0.0001858587,124.0331
125.0,0.000187375,125.0148,125.0,0.0001874336,125.0182
